##TITLE=PBS DLS 50-50
##JCAMP-DX=4.24
##DATA TYPE=INFRARED SPECTRUM
##DATE=11/1/1970
##SAMPLING PROCEDURE=
##ORIGIN=Default
##XUNITS=1/CM
##YUNITS=ABSORBANCE
##RESOLUTION=2
##FIRSTX=3998.5113
##LASTX=399.74915
##DELTAX=-1.0197682
##MAXY=0.73035175
##MINY=-0.0059686387
##XFACTOR=1
##YFACTOR=6.8019307e-010
##NPOINTS=3530
##FIRSTY=0.0018234509
##XYDATA=(X++(Y..Y))
3999+2680784+2496262+2267984+2042613+1841023+1738554+1601038+1469579+1652012
3989+1969505+2073501+2058229+2008750+1945341+1962710+2076211+2251791+2317063
3980+2234758+2168921+2277838+2622850+2845138+2506119+1951602+1867702+2127452
3971+2271001+2235292+2207949+2264891+2228036+2105535+1923240+1754887+1844420
3962+2089117+2140817+1936409+1746339+1807781+2004703+1929958+1654682+1665290
3953+1838046+1982637+2129056+1815147+1271944+1355613+1759046+1923354+2057809
3943+2140129+1973513+2009361+2248468+2125963+1870756+1920148+1955953+1822513
3934+1770075+1769808+1650562+1391425+1305998+1693908+2164797+2212990+2152730
3925+2151967+1947059+1784921+1796522+2041048+2377070+2236400+1893466+1818200
3916+1542858+1059848+984756+1277550+1604739+1786676+1798278+1670097+1490177
3907+1525425+1844458+2043568+1880260+1830184+1949044+1899955+1720848+1604815
3898+1538242+1386734+1365834+1496280+1330404+949728+1072389+1630912+1822513
3888+1699059+1488613+1222412+1174332+1302032+1230991+1072580+1241782+1789691
3879+1873733+1676928+1782936+1958511+2135853+2281084+2122679+1819459+1589783
3870+1492656+1367093+1260657+1377047+1523021+1461874+1328688+1538433+2042346
3861+2183508+1875565+1508487+1154812+936236+854909+635179+564480+1059085
3852+1258407+1406758+1853809+1988631+1714399+1662924+1792401+1712109+1680514
3842+1835680+1878580+1976835+2076784+1834955+1367588+1064269+1013991+1126561
3833+1367550+1733975+1912170+1687573+1511272+1557050+1487278+1297227+1424112
3824+1697762+1772098+1849840+1954694+1506237+1217875+1804346+2809436+3221133
3815+2622621+2032191+1948662+2005581+1822055+1670479+1783776+1946067+1677080
3806+1335515+1515087+1830947+2062314+2169799+1998480+1857626+1869420+1858733
3797+1688146+1408588+1125455+923964+843020+889702+1117335+1458517+1702112
3787+1835375+1983057+2060367+1946257+1728022+1536755+1379869+1314464+1322282
3778+1278046+1371669+1625227+1665175+1397833+1235872+1376589+1510509+1408665
3769+1453749+1764694+1818124+1672616+1702226+1573035+1363546+1517910+1787707
3760+1723672+1176277+721927+938523+1408855+1453901+1247692+988033+664360+602190
3750+820651+1262030+1746720+2059603+2280091+2391395+1877397+1239342+1022796
3741+1238198+1530498+1718138+1788813+1579559+1362859+1530384+1630302+1594094
3731+1531566+1214214+839133+595257+479315+635217+945040+1262221+1687192+2055632
3721+1942287+1460805+987767+855786+1138151+1403287+1434754+1532444+1920110
3712+2235292+2184196+1975155+1577231+1208571+1019975+1206245+1694633+1763244
3703+1231944+859406+972749+1067090+1235109+1631599+1931752+1897093+1614926
3694+1397261+1607448+2024440+1966871+1517528+1191032+989863+977933+1510166
3684+2208063+2332532+1980194+1897818+2243541+2333411+2235445+2651625+3100506
3675+2741437+2520866+2539130+2310684+1783318+1537594+1982637+1899688+1329451
3666+1326362+1814078+2258207+2578791+2660492+2577339+2545549+2599235+2735055
3657+2762191+2455000+2123825+2235216+2737386+3008731+2622697+2347199+2839595
3648+3292280+3094655+2680784+2476548+2453969+2364388+2082282+2017492+2380203
3639+2814214+2997796+3121769+3283597+3259268+3218532+3164565+3004296+3286772
3629+4015758+3874803+3440377+3453501+3199140+2779430+2750802+2771518+2665727
3620+2905119+3399667+3480401+3078096+2761771+2993858+3684614+4167049+3953720
3611+3442060+3104598+2779583+2319966+2119357+2373365+2809015+3089377+3269061
3602+3519011+3705552+3697169+3562522+3593560+3769480+3671103+3537609+3819019
3593+3933961+3748578+3932391+4409304+4502276+4129510+4100707+4447012+4562374
3583+4553252+4755892+4928183+4777593+4513084+4202981+3827136+3797809+4081173
3574+4101664+4057656+4372747+4874263+5322905+5620883+5696868+5363507+4921356
3565+4867283+4971061+5009340+4924539+4816589+4972557+5176942+5264961+5465754
3556+5559456+5389797+5368535+5744291+6118231+6150700+6049649+5973546+6015765
3547+6181326+6178174+5968168+5830352+5755388+5763722+6109663+6486932+6285663
3538+5868875+6005085+6354270+6298846+6060791+6012884+6193545+6353502+6367032
3528+6299115+6125301+5981267+6209109+6684495+6770414+6464172+6309800+6424461
3519+6748606+7021778+6822726+6306571+6115926+6356039+6534875+6364379+5970857
3510+5798208+5947348+6008812+5955799+5927527+5898834+5996057+6104515+5970742
3501+5818985+5838379+5988912+6068514+6007275+6087417+6181517+6083959+6031746
3492+6117924+6163265+6033129+5876941+5872025+5842374+5680050+5569438+5631134
3483+5793215+5913545+6191317+6682995+6772953+6335936+5996211+5984417+6035012
3473+5890499+5655092+5921496+7036245+8306452+8875587+8848999+8411061+7711361
3464+7403744+7571437+7688096+7687750+7748688+7751500+7756007+7859870+7936199
3455+7926412+7856633+7906299+8010418+7939898+7858098+8008452+8270443+8285479
3446+7893584+7480557+7563850+7895163+7951458+7917318+8094319+8652655+9413211
3437+9873944+10240528+10421578+10005406+9648656+9929951+10334121+10066682
3428+9198894+8320949+7750267+7404629+6981339+6601971+6603893+6879426+6946443
3419+6668881+6518881+6745491+7126561+7494266+7791756+7988991+8053041+8089385
3410+8300476+8466245+8291879+7835212+7368671+7228475+7559460+8330511+9229397
3401+9625435+9286814+8539754+7847310+7725498+8073660+8371884+8611419+8863277
3392+8913483+8638807+8274992+8071695+7955350+7872238+7881408+8033502+8183897
3383+8036932+7812790+7799499+7896666+8015312+7905682+7680046+7708241+7647499
3373+7382261+7406554+7719682+8056471+8333287+8347399+8109543+7839258+7476553
3364+7103625+6976183+6916704+6731760+6828995+7299146+7542670+7600820+7626663
3355+7395313+7215195+7215965+7354966+7689791+7871313+7785669+7648270+7427692
3346+7135104+7092157+7455414+7940746+8053966+7619924+7107319+7016814+7250568
3337+7357892+7228051+7176053+7338412+7513365+7483561+7175437+6825534+6930592
3328+7347150+7554723+7784667+8033001+7802890+7347728+7080651+6929284+6973798
3318+7399085+7713518+7381799+6953252+6950560+7083345+7283248+7667258+7879713
3309+7635984+7122328+6670266+6576977+6870733+7188138+7141377+6907279+7044287
3300+7454798+7613646+7517793+7387959+7395774+7542477+7404399+6920551+6613353
3291+6742376+7087386+7272894+7027511+6577323+6451909+6526301+6512229+6504232
3282+6515843+6627388+6797569+6759260+6547332+6549409+6854037+6965103+6678227
3272+6449372+6526071+6750684+6852768+6641694+6370145+6276554+6317410+6351618
3263+6326634+6401435+6461943+6330708+6251151+6358114+6416312+6409277+6426037
3254+6384982+6310031+6210338+6097252+6192777+6536605+6642347+6287585+5980960
3245+6071280+6239583+6297193+6428805+6517189+6503963+6577131+6547217+6258069
3236+6175830+6437416+6493160+6397783+6525340+6559059+6294426+6017570+5833271
3227+5801549+5941432+5926336+5758307+5692490+5556923+5463528+5690532+5867569
3217+5827664+5868068+5939704+5816988+5574045+5461071+5535886+5626987+5688996
3208+5812840+5993023+6032246+5715837+5368650+5457195+5722902+5807809+5804890
3199+5712457+5476003+5345624+5599959+5941509+6002357+6051494+6019031+5635396
3190+5233420+5095303+5252375+5553890+5647375+5598845+5784767+5990448+5862153
3181+5602416+5418006+5260049+5212010+5400965+5672102+5707466+5516922+5474928
3171+5612974+5661927+5520492+5385422+5504024+5794598+5987952+5754314+5311699
3162+5238792+5361473+5326167+5292858+5413669+5590668+5578344+5386074+5552124
3153+6125916+6417657+6212260+5751318+5238446+5171148+5608751+5719292+5371221
3144+5195818+5252912+5364352+5566789+5808846+5943545+5871563+5804621+5977887
3135+6112813+5973776+5781618+5769098+5827050+5859119+5855240+5665190+5541260
3126+5711114+5851899+5844793+5703818+5396667+5208403+5342861+5658548+5913699
3116+5971433+5907399+5822518+5731427+5652635+5662579+5762570+5790066+5755773
3107+5867876+6032399+6016456+5901062+5735689+5622073+5724745+5796403+5804198
3098+5909359+5885967+5765258+5886236+6252689+6502118+6447719+6371875+6338665
3089+6170067+5944044+5857007+6005623+6260182+6452524+6525109+6484433+6394784
3080+6414658+6626504+6862384+6916819+6711531+6492045+6559059+6787800+6893352
3071+6846151+6897353+7035476+7056293+7172936+7339798+7165623+6890429+6919705
3061+7097314+7304458+7715483+8015466+7785708+7429540+7419068+7521529+7463346
3052+7521837+7851125+8062406+8009955+8002132+8180698+8361473+8330396+8220442
3043+8275917+8460267+8618478+8600156+8591245+8730931+8749296+8712143+8833989
3034+8972840+9089988+9305001+9377293+9170595+9124731+9450868+9753986+9791046
3025+9812108+10056669+10433647+10682935+10784373+10818473+10841775+11028804
3016+11335965+11619129+11846626+11958176+12163026+12730873+13315936+13554845
3008+13761102+14217786+14736327+15229099+15705361+16258373+17167988+18233914
3000+19117646+19878096+20691969+21711312+22930761+24177838+25311724+26569099
2992+28195735+30044170+31928095+33869083+35951129+38192896+40592838+42942404
2984+45090564+47122067+49101897+51046330+52795027+54287891+55897066+57982681
2976+60488859+63386006+66748024+70318835+73961135+77859454+82079442+86436483
2968+90608505+94493756+98263085+102079975+105863763+109456684+112902629
2960+116114429+119035761+121696517+124057604+126319933+128474687+130349904
2953+131926843+133344330+135180639+137801524+141045353+144753024+148721402
2946+152553539+156012443+159132999+162219917+166090699+171188681+177088282
2939+183545160+190679782+198602036+207411468+216842672+226484557+236270242
2932+246038489+255447413+264353565+272798898+280660973+287672280+293710094
2925+298573635+301918150+303391084+302640103+299385540+293669324+286068581
2918+277279435+267844267+258262626+248842902+239769728+231165546+222921759
2910+215054733+207805930+201006554+194386599+188218678+182752008+177597275
2903+172476444+167755080+163394146+159131093+155150107+151226968+147054710
2896+142802873+138473924+133977077+129441815+124908033+120250869+115454166
2889+110792500+106486038+102369852+98577071+95327371+92384822+89874021+88041841
2881+86724568+85886600+85728840+86253716+87262348+88745009+90802965+93307303
2873+95920565+98311687+100289298+102047826+103988557+106244576+108850422
2866+112257471+116995068+122997863+130089690+138197147+147244284+157091572
2858+167074532+176329590+184212871+190280172+194053762+195086623+193418736
2851+189309703+182960893+174611766+164600381+153355224+141426517+129448103
2844+117771559+106637089+96176332+86346247+77488964+69936734+63435472+57533960
2836+52254810+47827743+43955809+40404405+37321195+34795875+32854197+31200678
2828+29378266+27612580+26308178+25287927+24326629+23264541+22119310+21206749
2820+20497610+19778618+19174939+18725553+18225261+17693354+17288136+16978723
2812+16581027+16125656+15654033+15071034+14579591+14243119+13919388+13665333
2803+13461751+13187170+12712083+12205461+12166090+12347648+12066875+11517559
2795+11105087+10828228+10743308+10706349+10537638+10485176+10476007+10109366
2787+9473734+8969096+8806091+8785409+8719087+8607716+8337760+8018896+7887495
2778+7863762+7900403+8123457+8330280+8193881+7845307+7629513+7617998+7618614
2769+7485332+7259575+7213079+7386149+7340953+7117555+7111514+7247258+7341299
2759+7308539+7197991+7206189+7328172+7405053+7266427+6937902+6818610+7036746
2750+7232015+7243563+7244833+7359778+7394658+7196374+6982801+6967988+7100508
2741+7115632+6948213+6833227+6881888+7030358+7145764+7210846+7268044+7222470
2732+7219853+7357584+7292294+6985456+6883889+7167702+7415025+7269506+6954368
2723+6798723+6692648+6497197+6311107+6064249+5921842+6057064+6231052+6384598
2714+6518419+6454793+6192239+6035050+6072202+6050726+5904096+5773246+5718294
2704+5798861+6050303+6214988+6164149+6110777+6094640+6022910+5997364+6125532
2695+6223136+6073547+5933750+6127914+6418657+6520034+6494775+6450371+6509615
2686+6680419+6584168+6095985+5771825+6030094+6571286+6804647+6660921+6433572
2677+6168798+5858120+5687384+5719753+5652558+5385306+5141377+5015592+4929947
2668+4783038+4606915+4466902+4403211+4457436+4646667+4767164+4633058+4527188
2659+4592464+4615693+4556740+4512893+4470045+4466327+4564252+4615731+4610633
2649+4596642+4393171+4107295+4028358+4035060+3996802+4087607+4292514+4338530
2640+4218956+4183482+4290368+4429576+4433446+4206774+3880431+3524292+3227061
2631+3247257+3437392+3420596+3161122+2795866+2549523+2525490+2677230+2896555
2622+3000664+3063221+3097064+2890897+2607603+2576843+2717359+2836270+3014505
2613+3167203+3030068+2752369+2567443+2591440+2812685+2910395+2940177+2968928
2603+2765440+2715792+3083794+3422202+3413441+3180896+3140814+3213750+2985790
2594+2834817+2869986+2620252+2426654+2651625+3054273+3403149+3320053+2816775
2585+2513187+2454580+2395864+2609858+2981431+3053890+2935972+2734749+2506119
2576+2497828+2522395+2485029+2552579+2363204+1916025+1803545+1887588+1857626
2567+1889802+1980996+2006688+1789195+1445777+1455236+1658002+1583565+1267559
2558+1003623+1065604+1460577+1799385+1896864+1806369+1538509+1412708+1482166
2548+1519016+1858618+2329782+2149905+1594133+1391425+1608325+1817704+1711766
2539+1486095+1244070+1022529+884291+748902+736329+996343+1328231+1308858+891494
2529+534998+689847+1322243+1826711+1740233+1533397+1802056+1980003+1399892
2520+588134+196784+251415+524410+687562+686114+568403+423446+511498+662837
2510+802932+939133+796569+659294+610456+335902+235234+549282+784718+632856
2499+233293-93004-228833-382204-571205-567935-394679-360600-568392-732858
2489-651352-454160-317695-268016-188429+68278+346220+253318-196495-483138
2479-410273-336410-499871-614702-249604+277304+339443-41100-327129-57311+402654
2468+286099-321955-682222-440774+73187+260400+83350+115361+735490+1492580
2458+1532863+1041741+870114+1013381+866799+400331+139760+212545+193015-132196
2447-326748+36650+509860+478591+360462+571336+803047+772221+495997+347858
2437+429882+424665+170213-94374-86992-32043-73978-48787+39047+85595+105616
2426+140788+136220+293447+594038+508870+108509-182266-382128-501544-415901
2416-342648-322640+7193+343098+295732+180034+308906+563337+677580+683218+563146
2405+372685+464157+717240+757018+731833+882042+1057675+1167851+1327239+1374530
2394+1215587+1253260+1432389+1340015+1189698+1192824+1219438+1345468+1599970
2385+1732219+1759848+1670479+1341350+1279266+1605082+1599436+1215701+920458
2376+502357-77479-334051-496296-900702-1188017-1391134-2073693-2786215-2892832
2366-3045565-3565084-4095222-4411869-4302255-3724845-2777652-1977714-1986288
2357-2424404-2824029-3077682-2596959-1529192-668840-151981+305250+547872+239079
2346-509301-1409589-1971037-1965118-2136052-2748247-3207122-3136006-2764465
2337-2591274-2425390-1810836-1304471-1439283-1924597-2330223-2315434-2010113
2328-1825484-1706468-1406703-966824-826591-1055888-1200856-1485758-2141059
2319-2627508-2505684-2018232-1593427-1363108-1350728-1491225-1811899-2063526
2310-1858802-1670941-1947741-2239212-2208949-2090004-2234662-2533280-2435626
2301-2138404-2209480-2503788-2516904-1980218-1395463-1439435-1881417-2193399
2291-2275466-2048429-1911089-2160933-2072251-1695688-1775542-1997518-2003057
2282-2292834-2681097-2376709-1810988-1809622-2184676-2542680-2713839-2690268
2273-2815845-2944807-2685114-2479527-2722403-2615152-1810381-1240283-1214151
2264-1525699-2059961-2630161-2855249-2436385-1797326-1462065-1083319-61725
2255+429920-415293-1318068-1471709-921603-555996-948736-1285102-1417183
2246-1407311-1002314-704879-562308-629910-854488-532497-209126-238952-159438
2235-400688-1094868-1472621-1482948-1352475-1135670-1290267-1299002-226246
2226+959333+809639+203218+345992+613656-47569-1719145-3029884-2727254-1390754
2216-517211-174124+296341+475278+273497-9438-655230-1073516+14766+1702684
2206+1952976+1089925+526276+913064+2015622+2297240+1266606+115437-290459
2197-392625-1161730-1851288-1927101-2197268-2048049-568772+1339557+2350026
2187+2159260+1534580+897058+69876-836169-1980597-2996324-3122978-2170795
2178-871971-322108-384334-695604-1009457-1008089-1051784-1418019-1864721
2169-1622657-948888-1395007-1611497-97570+675370-411261-1771975-2473537
2160-3854229-6885122-8774918-7516027-5273084-4772480-4971364-3682846-2599385
2151-3060109-3257028-2582404-1419614-809335-1579077-2514933-3575075-4790007
2142-4631041-3394835-2686175-2521226-2520392-2703759-2850172-2987840-2962915
2132-2586725-1717474-287416+1247464+1991647+1434639+653313+927852+1923583
2123+2715066+2836767+2321990+1934042+2288685+2818112+2672186+2021577+1473393
2114+741396-15603+205083+734157+1023292+1646670+1529697+542464+73302+239003
2104+1213413+2378789+2150630+1036214+392296+173220-94754-446326-1192575
2095-2463756-2900409-2065120-1487049-1466090-1078608-643977-756577-588163
2085+109423+445001+550310+1020204+1384446+998363+197774-342495-587099-956488
2075-1132631-592193+420857+1473927+1993059+1630988+1167698+1533703+1960382
2066+1111922-655382-1500717-900854-244658+165492+454636+143110+24167+941305
2056+1623548+1104907+666570+1158815+2392121+3425990+2990187+1867931+1318087
2047+1575247+1568152+76042-1244613-1013029-206539+433005+791158+934254+730652
2036-457127-1667980-1602158-1896140-2812663-2590591-1919285-1422196+346030
2027+2260116+1217455-1495022-2905788-3149866-2971097-2081734-220767+1816292
2018+2280358+971225-635461-1574446-1853793-2829940-4060735-3462289-2240502
2009-1814631-1623416-2265303-3145928-2093190-1392425-3816930-6568569-6423383
2000-4120178-2295792-1779717-1416500-2004347-4591444-6303412-5643771-4836692
1991-4545195-3966794-3042535-1947741-968952-410881-520177-1158615-1544454
1981-2023163-2697695-2896165-4041449-6058501-7059863-6955446-5990416-5146478
1972-4645700-3374241-2302542-2312097-2449881-2718159-3678760-4697458-5127980
1963-5200611-5088641-5312864-6100797-6405299-5663311-4476344-3080561-1662210
1954-1285102-1957909-2582480-2661086-2215017-1505501-626944+237785+184450
1945-785466-1772203-2333180-2113977-1646192-1284342-704651-461995-1272416
1936-2231476-1957606-772086+407871+1081729+1041741+1158967+1263326+197203
1926-918259-835713-212398+230171+458254+713926+1046239+1137083+849841+574421
1916+529856+656817+627370+146459-350939-215974+562537+1226301+1624769+2443005
1906+2937998+2225477+1678072+2298309+3115344+3211303+2600687+1889039+1839840
1897+2128407+2192215+2579288+3046816+3023376+2867769+2837378+2858212+2733029
1888+2691982+2971643+3131712+3126549+3285242+3368639+3392321+3523067+3559116
1878+3534816+3676117+3859411+3833185+3705591+3739544+4035328+4210183+3816760
1869+3212259+3176535+3706662+4363704+4839712+4846576+4603005+4679866+4973976
1860+4835992+4254814+4127787+4608487+4998140+5069831+5001324+4736146+4356079
1851+4543593+5037111+4958558+4469087+4307992+4774756+5428715+5624684+5614087
1842+5602570+5513391+5557345+5759191+6070051+6402972+6765837+6970643+6741376
1833+6575862+6817302+7161582+7662020+8290105+8664344+8954971+9220940+9314346
1823+9488760+9818446+10164000+10380846+10479721+10792385+11308578+11735562
1815+12003314+12069706+12265242+12890767+13634191+14038574+14154243+14133776
1807+14073782+14148989+14407090+14769353+14882778+14724020+14914527+15608092
1799+16064654+16176280+16339968+16668171+17131280+17575594+18004716+18462802
1791+18891149+19161056+19555340+20052631+20414577+20639845+20820724+21214460
1783+21894149+22580673+22948631+23474393+24333705+25159932+25775085+26357952
1774+26822706+26992720+27572843+29133721+30702379+31892170+33346242+35097721
1766+36598979+38046492+40043757+42542728+45588291+49262203+52912767+57039113
1758+62092284+68878094+77569276+87088284+97683759+109082300+122857602+142663291
1750+163308861+184068152+209016985+235116037+261330430+287825411+316930051
1743+349119669+377664205+403844073+436429665+468925919+493146665+513608739
1736+529988748+544836301+557998003+562755688+561974213+557305646+549090383
1729+540941542+536983821+541580752+560321267+594534217+640968435+684760945
1721+711037905+718587451+715957398+719515486+755135627+820788157+919988314
1714+1043400454+1073741823+971572357+808244502+646588083+520881159+434770453
1707+367644003+308276007+262117820+227294907+202793945+187495191+172918455
1700+149171443+135235144+130074486+125365949+117800707+109623617+104808392
1693+100154612+94773402+89538747+84950771+81372161+78875485+77777000+77661292
1685+78598144+80237831+79436683+75886185+69719277+62355872+56562034+52909870
1676+50670188+48279093+45246272+43486161+42403338+41224711+39878012+38335087
1668+37065321+36496094+36172121+35692906+35038900+34164869+33212331+32631586
1660+32202451+31700569+31332130+31149489+31098024+31145532+31039931+30044208
1652+28979226+28963137+29107273+28984086+28520102+28023771+27750965+27695362
1644+27742539+27772429+27618103+27227470+26843186+26576559+26323010+26071744
1636+25893137+25624886+25399079+25308715+25296044+25316199+25285236+25210447
1628+24989893+24766644+24688318+24509464+24135269+23939662+24165663+24559136
1619+24771116+24837345+24914505+24780254+24686535+24722693+24616128+24378026
1611+24165151+24003672+23766707+23492910+23196105+22846780+22523822+22200081
1603+21969142+21886547+21702730+21413800+21166936+20940498+20663784+20330809
1595+20097676+19946648+19826196+19741132+19505389+19186822+19045261+19012562
1587+18962653+18895265+18788142+18732451+18796254+18772582+18552671+18420615
1579+18484073+18596083+18663166+18523366+18427077+18505580+18649255+18784261
1570+18859791+18636324+18175530+18004874+18127253+18267239+18259643+18223577
1562+18259094+18410429+18539626+18257018+17878485+18002916+18385282+18655720
1554+18527715+18449718+18675510+18862613+18903301+18889268+18966535+19049888
1546+18898794+18534964+18352853+18304365+18166838+18098321+17847215+17415852
1538+17392936+17488209+17618783+17805968+17765115+17509486+17515041+17569570
1530+17519657+17433961+17427781+17538629+17582088+17442604+17275622+17170841
1521+17157823+17364270+17757249+18174513+18269550+17966904+17957509+18279224
1513+18601177+18754827+18768897+18792923+18968456+19278912+19313038+19098432
1505+19561266+20186795+20769376+21341155+21841691+22239447+22486962+22714305
1497+23090113+23512457+23796452+24123730+24583379+25149008+25750557+26456792
1489+27456187+28788977+30578923+32688986+34900857+37330555+40397595+44359552
1481+49382748+55425195+62457001+70214666+80092033+92442493+103124677+112485054
1473+120990074+126538754+129890914+132624797+135086394+136745146+137266703
1465+136221749+133735133+131443722+129663057+127959658+126529991+125409862
1458+124634028+123520537+121453566+119731130+118024511+116028169+114616093
1451+115524401+120170699+128948968+138677190+139020126+127860112+113766015
1444+102975752+96593019+92941485+90778834+89580962+89130138+89255688+89879010
1436+90996428+92537110+94827305+98637656+104599265+114778371+133315730
1429+158790414+184334675+202625873+206370479+195012620+173721159+153375401
1422+139315009+129742701+121491542+114691060+111401653+109881991+109174989
1414+108889329+108797220+108661538+108182930+107394948+106455368+105324505
1407+104001942+102534145+100995927+100095134+100601575+102527617+105518428
1400+109299543+114369089+120512387+126666550+133004471+140150606+147669931
1393+154199771+160271574+166398452+171955927+176067251+177475252+174422290
1386+167179248+157071910+145267264+133846455+124520275+118080232+114204358
1379+111953913+110517334+109432060+108488898+107705714+107363654+107906899
1372+109423023+111709527+114547513+117885795+121449513+124961958+128563817
1364+132341459+136647845+141324178+145695222+149678946+153007644+156116141
1357+159556434+163069021+166547870+169925947+172884477+175358146+177242629
1350+178452282+179356274+180737866+183372081+187874580+195374222+206830904
1343+222417125+241727120+265199623+293625751+324393282+353269231+378645037
1336+400158309+416576655+427699493+433568621+434091109+429806358+420990835
1329+408004391+391338143+372159000+351966560+332087525+313083663+295407928
1322+279866200+267122050+258033761+254995269+262034398+282335783+313994632
1314+346934114+366588578+365236834+348274991+325005349+300919902+278331356
1307+258119550+240365562+224741310+211232531+199723118+189957347+181660074
1300+174367182+167949967+162555515+158091748+154485124+151828168+150069586
1293+149012867+148378401+148158682+148469677+149237066+150498946+152269917
1286+154288254+156402545+158785244+161433491+164144502+166852293+169448730
1279+171877510+174428040+177259454+180140324+182878993+185546059+188185357
1272+190668084+193001184+195288498+197550247+199616912+201243459+202368813
1265+203078389+203443539+203409583+202952225+202200018+201243678+200123276
1257+199094905+198299037+197606877+197158589+197292464+198317768+200213139
1250+202682810+205628765+208646161+210750484+211302196+210671815+209466456
1243+207946027+206446344+205216734+204079024+202826674+201564050+200420382
1236+199399438+198457930+197522512+196534517+195687123+195340309+195488709
1229+195849806+196415298+197485533+199064279+200781764+202541311+204655098
1222+207331572+210538290+214047920+217465407+220789482+224494108+228833146
1215+233687706+239137836+245497642+252928298+261199096+269500893+276346931
1207+279688707+278210537+272705026+265325086+258015731+251929064+247421756
1200+244372574+242511596+241715618+242019209+243344138+245714130+249212937
1193+253811664+259819268+267978470+279308441+295283779+317619691+347645596
1186+385347210+428269870+471401833+508854208+536134740+550970989+553366547
1179+546116473+535033375+526952491+527329120+538903685+561115536+590966884
1172+624498124+657779184+688726552+717433333+744288733+769974548+795511043
1165+821298596+847094561+872846886+898728903+924485172+949524986+973199452
1157+993738027+1008944026+1018244706+1020994417+1015635202+1001260802+978185105
1150+947218678+909533822+867078444+822361536+776986095+732064179+689189715
1143+648741128+610324395+573928562+539444444+506599339+474974818+444364603
1136+415080741+387235396+360783287+336153862+313617762+293058791+274543154
1129+257958970+242734809+228611423+215839232+204360467+193783514+184100903
1122+175402475+167376731+159969440+153304750+147259575+141772838+136691823
1115+131884167+127409041+123458058+120101932+117193569+114603617+112218586
1107+110120758+108173685+106080590+104077193+102285695+100418715+98577871
1100+97052074+95740060+94446229+93196935+92248405+91797149+91781200+91884466
1092+91756286+91554816+91715511+92145211+92514721+93000865+93855335+94974434
1084+96308805+98077914+100372710+102953439+105729745+108886569+112415565
1077+116028717+119595776+123341664+127492125+131612200+135062647+137931215
1070+140361146+142333226+143982853+145058641+145282555+145042452+144688913
1063+144045891+143064796+141966882+140997321+140442323+140607219+141986368
1055+145037052+150101745+158378897+171773221+192182532+221544822+259224595
1048+297470474+322477624+325285126+310378796+288872425+268239671+251149056
1041+238076232+228359336+221178949+216025860+212113772+208699615+205477364
1034+202287208+199156092+196018886+192701340+189450457+186423247+183250420
1027+179496951+175045442+169995272+164447041+158641149+152885445+147530097
1020+142838100+138835525+135698516+133435551+131641523+130376883+130059370
1013+130536641+131523300+133122037+135198034+137306990+139355055+141472347
1005+143501572+145249683+146845364+148453685+149990544+151304903+152397647
998+153564734+154991061+156269491+157153394+157796504+158205205+158425724
991+158392457+157774870+156708732+155700670+154828619+154078459+153737166
984+154042663+154901033+155871546+156741374+157711668+158733126+159440259
977+159718284+159675521+159347592+158770500+157971597+157100433+156354809
970+155687503+155203386+155368019+156637577+159366301+163809201+170494758
963+180388741+193853595+210630323+230731190+253406358+275173075+290292080
956+294380565+287233127+272294068+253966592+235057741+216860417+200424698
948+186387823+174600659+164639530+156367888+149699693+144195846+139240886
941+134397203+129852018+126089316+123090016+120647259+118866659+117751470
934+117003611+116428426+116023733+115765556+115656436+116152909+117957760
927+121370439+126283337+132506344+139976871+148355737+156971652+165075407
920+171264513+173326270+169611611+160788574+149310291+137412134+126295726
913+116546539+108571850+102270820+97229841+93297259+90315939+87996016+86094954
905+84497515+83369073+82813938+82544413+82273354+82049928+82288465+83128011
896+84060121+84940688+85905796+86765721+87642827+88418328+88378555+87554645
888+86557235+85455514+83956593+82047074+80221045+79000027+78353928+77906960
880+77289712+76623501+76350783+76317632+76087316+75395162+74334067+73403442
872+72613379+71688405+70725017+69757949+68872283+68184472+67546428+66914596
864+66305815+65828089+65633115+65476993+65258315+65283437+65515916+65528990
856+65138274+64635902+64258446+63851896+63310398+62705753+62043967+61309001
847+60662348+60012453+59246422+58727007+58352524+57763093+56953270+56143643
839+55757260+55894656+56247166+56386786+56327801+56367371+56509390+56749220
831+57055467+57531419+58264545+58935613+59335453+59801738+60777947+62088888
823+63415005+64776864+66243664+68044194+70272655+72701008+75306476+78428067
815+82569924+88294469+96220179+106827758+120283806+135918968+151667479
808+164513508+171583986+171896844+166691889+157700561+146439510+134531429
801+123332704+112955589+103005129+93739008+85308303+77741237+71174899+65621559
792+61072227+57084018+53594537+51160987+49413341+47649758+46038753+45003211
784+44248682+43299197+42585565+42313302+41784357+41070753+40908959+41130579
776+41157448+40990194+40808545+40577993+40559095+40888468+40969174+40702265
768+40672005+40978143+41289749+41388046+41312565+41346792+41628799+42109077
760+42734926+43363711+44134934+45025998+45627204+46133858+46932153+47838002
752+48688863+49572777+50557102+51600545+52409919+52711861+52637300+52582795
743+52548663+52270173+52054567+52347538+52829706+53013409+53305997+54257894
735+55379622+56237193+57424440+59078492+60875062+62888580+65111810+67696493
727+70584696+73395161+75792762+77548907+78712478+78789280+77172502+73887214
719+69271696+64326588+60076422+56399717+52990993+50210803+48002421+45689664
711+43121814+40889848+39253661+38063416+37192175+36081507+34589741+33426160
703+32600949+31832043+31446938+31368704+31330851+31352197+31315382+31360111
694+31579559+31745923+31766962+31540693+31363468+31924094+32915302+33312642
686+33293073+33503843+33820767+34290948+35012647+35671497+36033750+36209536
678+36582535+37170635+37885181+38978646+40028685+40618792+41305338+42302770
670+43287424+44274990+45924891+47817820+49065405+50372994+52661026+55926849
662+58845509+61108917+64002991+67898193+72198576+76798206+81244606+84682298
654+86528033+86240035+83845528+80429979+76869416+73347474+70218105+67351859
646+64685089+62688791+61027088+59088389+57464705+56281621+54895938+53590271
637+52620979+51961423+51332039+50163336+48455945+46917935+45899210+44717464
629+43386519+42678326+42238037+41591959+41677222+42492413+42694318+42366613
621+42077208+41659874+41370707+41657114+42258408+42624744+42750267+43190707
613+43750815+43846884+44105206+44638362+44646772+44567232+45095301+45973804
605+47019196+48136964+48701432+48622659+48939290+49940742+50645427+50915209
597+51520709+52319738+52914213+53540235+53942879+54327543+55268810+56362716
588+57368023+58369119+59389581+60243191+61058283+62525664+64487984+66148428
580+67377995+68415593+69442961+71019078+73164275+74951589+76209646+77495843
572+78996928+80559659+81995055+82564206+81950058+81269674+80876729+80241068
564+79282625+78342142+77839677+77512558+76851731+75628567+73816377+71872503
556+70074624+68242783+67110469+67026684+66776164+65992733+65510264+65412443
548+65176294+64868316+64481670+64655865+66065367+67428370+68232114+69399853
539+70477378+70119008+69029703+68973735+69344318+68999936+68639557+68475285
531+67839914+67089246+67068155+68208822+69834066+70880427+71938093+73409976
523+74246340+74151060+73623221+73170294+72740331+71976349+71006060+69573528
515+68509263+68600441+68155045+66523289+65463542+65565169+65606837+64664245
507+63082881+62182219+61662381+60972193+61094425+61002469+59719745+59478048
499+60471788+60354864+59645704+59885331+60289531+60280707+59498016+57990178
491+57425815+58166280+58645731+58154362+58076827+59267174+59523954+58514293
482+58740480+59401734+58616238+57374809+57435103+57773422+57006115+56386540
474+56470226+55934287+55086410+55909898+57214826+57477696+56889947+55975867
466+55344094+54576092+53712880+53671109+54285322+55451555+56756915+56978983
458+56703675+57154559+57360613+57107984+57048183+57487193+57774551+57740638
450+58021648+58268587+58201298+58150611+58688581+60056186+60658706+59549526
442+58682196+58408486+58438176+59249719+59307220+57887335+56697891+56382339
433+56796266+58243366+59607514+59726848+59334117+59761955+61268916+61257689
425+59087387+59255229+63024114+66742531+68783651+70334345+70820002+69405664
417+69517599+70727613+71464738+72653803+74634624+76741340+78734473+81134747
409+85414230+90343909+92369651+92810841+95149112+97934597+100524637+103115553
401+102547235+99403555
##END=
