##TITLE=PBS DLS 70-30
##JCAMP-DX=4.24
##DATA TYPE=INFRARED SPECTRUM
##DATE=10/1/1970
##SAMPLING PROCEDURE=
##ORIGIN=Default
##XUNITS=1/CM
##YUNITS=ABSORBANCE
##RESOLUTION=2
##FIRSTX=3998.5113
##LASTX=399.74915
##DELTAX=-1.0197682
##MAXY=0.82218981
##MINY=-0.0053722975
##XFACTOR=1
##YFACTOR=7.6572393e-010
##NPOINTS=3530
##FIRSTY=0.0019197207
##XYDATA=(X++(Y..Y))
3999+2507066+2447172+2203313+2078979+2144570+2156277+2063949+2098252+2310531
3989+2450839+2333376+2131200+2071922+2193810+2283886+2172905+2108296+2171141
3980+2178980+2127467+2067613+2061777+2151832+2203686+2063779+1918004+1994364
3971+2162385+2143213+1926179+1806621+1801466+1738119+1696208+1865566+2267153
3962+2604697+2526761+2144231+1958235+2015975+1919938+1772097+1898568+2156277
3953+2209863+2075383+1918852+1632568+1350291+1461382+1916681+2387691+2600826
3943+2403647+2009325+1870450+1991413+2053872+2030360+1961017+1724284+1558799
3934+1613854+1675627+1720317+1694343+1674135+1972246+2354931+2308121+2119256
3925+2143213+2137003+2002031+1754803+1571613+1545240+1562155+1676203+1741646
3916+1528054+1243796+1275712+1563715+1675898+1547748+1474024+1503920+1571308
3907+1795870+1941986+1536393+1019995+1103279+1471008+1774370+1970889+1846505
3898+1537206+1436641+1629754+1852033+1804654+1538359+1461484+1706991+1838331
3888+1910881+2011089+1859088+1593445+1577681+1604056+1543443+1634060+1911152
3879+1836160+1630432+1619685+1663489+1812216+2113589+2278930+2124176+1783933
3870+1431150+1208732+1275340+1434946+1570664+1789766+1986358+2151017+2186989
3861+1911797+1713162+1635145+1386585+1182917+1308274+1580868+1732490+1742324
3852+1585173+1468500+1598496+1700955+1590123+1466127+1346632+1115981+1243864
3842+1742968+1785696+1478837+1578664+1975740+1958405+1759618+1716892+1533410
3833+1499174+1668032+1531240+1303869+1295330+1306919+1246168+1195621+1322641
3824+1676678+2167510+2395906+1772606+951893+994866+1683764+2415971+2512601
3815+1972483+1669999+1758296+1791834+1619143+1565918+1714518+1813810+1619922
3806+1467652+1567783+1569308+1455349+1447147+1388110+1362220+1597140+1748360
3797+1479447+1206394+1189455+1257315+1376927+1444334+1504598+1722385+1982491
3787+2103817+2035822+1804281+1530020+1346056+1301971+1409223+1596666+1639654
3778+1481990+1427422+1582732+1649859+1510970+1418712+1369878+1312069+1416306
3769+1579512+1566698+1563105+1607514+1503140+1375673+1406105+1529139+1620295
3760+1637179+1501344+1319218+1304716+1503343+1842672+2285142+2784688+2574710
3751+1588089+998016+1288317+1927502+2269562+2123972+1692546+1556765+1679492
3742+1792343+1787595+1664913+1528630+1369675+1284827+1263955+1198500+1449960
3732+1843283+1713705+1278084+937434+759179+994460+1366591+1254740+903641+836196
3722+1263888+1648435+1623652+1290790+817339+750378+1141149+1371064+1318270
3713+1424304+1643146+1772572+1899179+1977538+2029071+2022455+1906709+1728387
3704+1512665+1164455+932659+1116659+1476431+1821984+2090719+2327469+2440551
3695+2185054+1674440+1450130+1516902+1700752+2152171+2217431+1608023+1404038
3685+1827783+2428295+2823893+2766173+2349025+2012514+1866041+1965088+2157736
3676+1878624+1615040+2278896+2734445+2977955+3355743+3499201+3081479+2329913
3667+1743307+1754226+2256291+2793113+3070908+3073424+2825897+2476066+2395092
3658+2726632+3286204+3541415+3230953+3015644+3242513+3523352+3491921+3437160
3649+3529339+3741099+3869303+3791500+3664980+3378154+3086034+3184648+3589654
3640+3859637+3812498+3684885+3680564+3529135+3318711+3701116+4215126+4255486
3630+4303581+4449016+4020109+3698564+3786463+3759510+3823219+4175041+4262366
3621+4002609+4052964+4343028+4112926+3722656+3812056+4194010+4513859+4502274
3612+4163496+3982387+3994813+3862870+3551518+3448758+3786258+4300924+4606417
3603+4507726+4274935+4241794+4304501+4377674+4474026+4454434+4431572+4705535
3594+5139942+5202613+4886057+4855642+5173989+5244783+5133973+5357663+5534706
3584+5447526+5448413+5627533+5777509+5706989+5411278+5044364+4835560+4995558
3575+5288151+5261809+5101361+5335618+5948466+6511740+6722325+6457131+5897532
3566+5666696+5926739+6205527+6416443+6693282+6729099+6477955+6270947+6286944
3557+6563618+6633491+6260419+5933264+6049937+6629900+7218195+7355064+7188887
3548+7049252+7002531+7006946+7057809+7132091+7032788+6839879+6916460+7127161
3539+7072562+6830094+6870333+7159787+7269830+7209225+7148934+7036895+6888400
3529+6901335+6931620+6920429+7124765+7493782+7872227+8088736+7991905+7698668
3520+7428187+7431269+7748975+7866845+7592275+7371264+7278664+7192996+7099023
3511+6921970+6766456+6796255+7017043+7185259+7077902+6916357+7010472+7121718
3502+6989594+6960538+7129353+7201726+7114119+6983468+6898563+6804125+6801422
3493+6930525+6972995+7019747+7157288+7267535+7359517+7436270+7481176+7393491
3484+7104260+6807170+6834302+7337393+7806039+7734410+7421988+7270241+7338729
3474+7468331+7374003+7200117+7576995+8633717+9578184+9869885+9783583+9439128
3465+8891208+8594966+8694269+8987472+9385852+9591594+9354920+9125112+9226226
3456+9407677+9520770+9529365+9386230+9144729+9000214+9134801+9389530+9505266
3447+9512485+9437099+9254677+9086190+8987163+8951960+9059534+9328148+9896269
3438+10816414+11529324+11876433+12011012+11718554+11411450+11697297+12028658
3429+11562688+10789987+10334982+9926095+9402659+8729765+8135545+7995402+8153275
3420+8207534+7917750+7599881+7654052+7889229+8157185+8459444+8638660+8597060
3411+8554227+8790189+8985274+8773709+8318741+7965197+7885801+8130916+8809657
3402+9637461+10096759+10097963+9754693+9227291+8971295+9166373+9353889+9279452
3393+9288490+9579903+9602768+9123292+8691488+8549629+8572555+8623489+8765332
3384+9069736+9097424+8856629+8841109+9042188+9240829+9270896+9220797+9299452
3374+9299005+9043939+8821949+8907692+9253646+9699462+10043799+10143976+9944673
3365+9409189+8842001+8576673+8488235+8480754+8705391+9073171+9350452+9571893
3356+9643513+9441843+9096255+8828885+9003168+9503444+9777151+9666105+9467658
3347+9384030+9362378+9454114+9603112+9704035+9674117+9345331+9002138+9089007
3338+9381556+9510457+9510560+9350418+9151875+9182590+9310689+9327735+9228184
3329+9196573+9362893+9640797+9930774+9982691+9735055+9566632+9439884+9212310
3319+9225333+9528092+9709090+9557556+9369389+9290037+9282648+9536309+9819870
3310+9816705+9659572+9483884+9366055+9343647+9434796+9602974+9696298+9799370
3301+10003610+10009391+9802638+9687666+9667308+9810170+10091046+10113415
3293+9813541+9490827+9465940+9658437+9650837+9451124+9280690+9150088+9047134
3284+9062935+9078770+8997157+8981461+9019037+9082858+9269556+9611088+9903321
3274+9940098+9833388+9672742+9448065+9348287+9389357+9319900+9204716+9005882
3265+8698937+8501206+8434945+8670033+9067538+9189668+9106287+9090965+9199701
3256+9234472+9001451+8621223+8467783+8630697+8695333+8662756+8911573+9041088
3247+8621600+8222728+8309993+8399536+8159792+7976853+8045598+8228696+8390100
3238+8310645+8064972+7992007+8046764+8102795+8227050+8392777+8447160+8320319
3229+8089901+7874112+7849706+7886383+7770257+7716144+7794900+7742463+7671905
3219+7906986+8099915+8006305+7937976+7896804+7850803+7850151+7780813+7605706
3210+7464050+7548834+7695891+7670191+7597175+7619959+7685680+7719091+7734272
3201+7752196+7792775+7790135+7636166+7408698+7414418+7724883+8004762+8212027
3192+8305534+8019128+7528793+7154720+7098235+7329551+7454013+7457712+7636509
3183+7804531+7669369+7383593+7170914+6972448+6913928+7238773+7638462+7718338
3174+7614203+7516768+7425789+7352359+7253223+7254592+7361743+7369106+7387840
3164+7341298+7173653+7275172+7474908+7278322+6970942+6883507+6863112+6833276
3155+6789584+6951743+7394347+7687941+7676325+7433256+7005920+6810694+7032788
3146+7136541+6982954+6958074+7055652+7169681+7286198+7360715+7412979+7363387
3137+7268700+7355510+7511972+7456137+7164546+6911772+6920088+7030529+7074034
3128+7020261+6884875+6782707+6686886+6641256+6768201+6931825+7030461+7084817
3118+7194092+7444354+7635515+7608927+7436373+7136850+6823935+6720170+6864105
3109+7164443+7360544+7259249+7044460+6901951+6865576+6877621+6942228+7082625
3100+7103404+7079613+7255688+7402773+7285171+7169852+7265960+7374757+7384997
3091+7488781+7716007+7775604+7555788+7331811+7382360+7663578+7832225+7707234
3082+7549587+7547223+7570006+7485390+7481382+7723341+7846621+7813750+7943290
3073+8054103+7941816+7803057+7908906+8076562+8075431+8163496+8305465+8197930
3063+7944421+7809089+7935542+8202012+8456905+8709442+8811889+8686648+8439852
3054+8153584+8013128+8230240+8688364+8951960+8882143+8789503+8889389+9085744
3045+9153490+9147202+9309212+9525136+9568455+9439712+9311480+9319006+9253405
3036+9063072+9118311+9414517+9633473+9725185+9681098+9536481+9553568+9857329
3027+10175880+10282000+10317217+10452495+10743852+11025674+11118371+11159328
3019+11243184+11367474+11601158+11912508+12092818+12120550+12347014+12903298
3010+13443374+13837484+14334832+14900428+15357478+15811630+16382773+17061364
3002+17773836+18465550+19234308+20194401+21240628+22284253+23558319+25138974
2994+26604813+27861007+29421206+31470670+33624591+35679608+37794745+40040265
2986+42397976+44807970+47114143+49132222+50837390+52370379+53685243+54818894
2978+56084106+57585783+59211028+61209010+63914312+67019683+70138782+73301137
2970+76588699+79810398+82787171+85620210+88177245+90335413+92339398+94476676
2961+96785437+98868080+100491015+101846400+102938702+103737243+104653226
2954+106002987+107510737+108935001+110556972+112799734+115873049+119704505
2947+123708622+126887187+128769351+129851690+130857394+132253267+134192673
2940+136665007+139833521+143761811+148379742+153719006+159504852+165311064
2933+171159621+177141442+182901027+188084511+192753681+196992527+200672689
2926+203667774+205886279+207020148+206793845+205385528+202757930+198608251
2919+193201188+187001977+180399453+173851223+167543833+161442896+155623559
2911+150110554+144856673+140060593+135702027+131435869+127302001+123664642
2904+120469876+117280695+114167273+111424908+108944790+106478449+103786565
2897+100913292+98098827+95237512+92209482+89137957+85898783+82376025+78836715
2889+75656374+72908839+70302657+67885434+65780616+63842723+62259745+61207088
2881+60571546+60149726+59915527+60100224+60734034+61721432+62987533+64359616
2873+65731800+67023789+67999914+68843651+70153052+71859003+73482706+75398886
2865+78423492+82487717+87254120+92796772+98969303+105388521+111510738+116691274
2856+120626375+123254926+124348279+123734815+121650245+118320396+113678548
2849+107981830+101699319+94745169+87160915+79606178+72530337+66003051+60005594
2841+54467861+49408815+44980275+41214371+37903705+34944298+32328593+29832138
2833+27473179+25684818+24495480+23495173+22452555+21215921+19867690+18828393
2825+18189923+17724445+17211955+16532383+15862489+15363800+14902128+14420719
2817+14006729+13592972+13203323+12983538+12771135+12438164+12170215+11911507
2808+11474921+11023881+10699445+10464857+10291433+10143597+10111557+10093903
2800+9921108+9774125+9628074+9315191+8976035+8762826+8635468+8546025+8466238
2791+8346254+8303749+8313183+8086850+7626401+7225488+7042680+6971969+6916563
2782+6811994+6592312+6397946+6323418+6315111+6406083+6626001+6737857+6548912
2773+6334118+6300583+6341742+6370390+6253617+5953248+5772318+5828466+5861563
2764+5850633+5897327+5936851+5949286+5904978+5805480+5866209+6166292+6344750
2754+6220873+6147804+6325128+6529899+6571621+6476998+6427316+6511706+6492556
2745+6329879+6264076+6192198+6021680+5888207+5817810+5809374+5835400+5819313
2736+5688072+5551092+5613911+5793015+5943204+6019664+5914783+5740626+5792502
2727+6016999+6144420+6033126+5789018+5693262+5679160+5565635+5434897+5324254
2718+5295590+5286104+5175285+5102692+5084374+4966433+4768975+4710444+4830718
2709+4916133+4873168+4771532+4688798+4769828+5032290+5106171+4909995+4806034
2699+4892741+4975811+4999207+5160035+5404624+5325653+5040953+5095733+5327973
2690+5316815+5111595+4940549+5073663+5385750+5403053+5122715+5043545+5393088
2681+5753774+5743631+5576184+5396569+5044500+4656553+4541666+4591592+4441350
2672+4130566+3879685+3775368+3784761+3746136+3601561+3388186+3262505+3302627
2663+3446888+3620681+3649227+3572576+3566861+3609012+3617347+3488792+3214702
2653+3086781+3243771+3404884+3444609+3445459+3317725+3151197+3144432+3132127
2644+3013367+2940642+3043785+3315345+3586082+3651234+3474880+3297629+3289026
2635+3323574+3239827+2934151+2538612+2463197+2544826+2282867+1970990+1982287
2626+1991413+1807333+1753107+1880184+1961560+2102901+2256868+2072159+1788545
2617+1892802+2142636+2185292+2141075+2063915+1988563+2047595+2029647+1916783
2608+1965766+2028426+2103817+2227477+2176842+2140464+2289181+2390169+2359684
2598+2340912+2442215+2548086+2622561+2787405+2838027+2656321+2428363+2334258
2589+2382938+2415801+2472161+2524825+2441807+2280797+2253135+2488119+2672624
2580+2505538+2141821+1933031+1982151+1998028+1844063+1836703+2035110+2004610
2571+1698446+1470296+1349580+1172687+1099689+1363033+1743307+1836771+1639518
2562+1499140+1341854+995205+926767+1156731+1257247+1333687+1414307+1454841
2552+1486498+1343379+1143825+1082313+1203040+1561240+1808656+1639247+1363778
2543+1150498+881023+661189+706949+895582+765374+478826+579052+775936+572183
2533+491548+1037301+1276187+764934+409672+541457+885898+1187795+1347242+1448571
2523+1488565+1444775+1311086+1100739+877163+773600+833284+793438+510834+238382
2513+141867+236555+289926+62544-156094-164273+41211+273150+223332+43341-47664
2501-115334-303766-543203-670582-609801-307347-47123-38740-121350-341945
2491-646878-772816-597576-179075+80328+25490-15145+181093+401519+176968-384243
2480-730548-658089-351742-288561-492676-429105-74774+164794-28396-372621
2470-224156+243759+471856+454127+289520+20892-61321-13184-55101+111097+645248
2459+988770+902252+883088+942411+898799+835654+680752+602030+763682+865584
2448+701026+535027+586971+589306+340899+240275+545145+823534+717815+496318
2438+515199+625111+428787-71191-300725-71394+84859+134969+403245+671816+578409
2427+272304+226511+325035+284142+270444+256137+127801-58616-266733-444981
2417-488420-348972-38132+264119+262868+184542+444248+897004+1130445+1064396
2407+897749+636313+317526+332003+718661+977731+1095489+1294449+1386009+1449791
2396+1641349+1561206+1182917+1217201+1622329+1741137+1643112+1592123+1652402
2387+1876012+2196457+2472263+2400557+2023303+1864514+2029783+2132388+1940596
2378+1631517+1446537+1138371+512661+36748-135951-465924-921070-1321688-2058755
2368-2669578-2464562-2344723-2654975-2886762-3360403-3764878-3553069-3271945
2359-2945955-2354823-1877375-1505404-1288230-1236150-849041-13522+822315
2350+1305800+1361000+993850+232936-801782-1519902-1542963-1338012-1259964
2340-1517610-1908036-1838625-1531905-1488883-1588880-1653804-1717238-1824068
2331-1847723-1643557-1474182-1317101-983034-697730-514697-428902-553943-837969
2321-1113958-1426503-1809376-1897187-1673421-1518958-1525027-1556449-1526308
2312-1597038-1864100-1969218-1662366-1415442-1638029-1817935-1650905-1717912
2303-2143766-2470621-2462678-2229370-2244253-2469342-2344790-1938426-1762197
2293-1912685-2100993-2276174-2363172-2344655-2326879-2002165-1367218-1062469
2284-1454221-2099309-2649860-3170228-3135803-2429152-2076069-2279541-2357852
2275-2196436-1967736-2026755-2556445-2898803-2731552-2662916-2825612-2760216
2266-2253345-1742987-2068726-3163370-4253557-4620981-3979159-2795068-2008632
2257-2102475-2389228-2615067-2840143-2502058-1897389-1582812-1488883-1694454
2248-2177847-2701138-2830658-2418582-2331458-2682835-2779593-2696360-2476410
2238-1900152-1109910-802052-1240670-1392646-835741-564210-1048432-1890920
2229-2386804-1756939-232740+610051-205029-1335516-1555235-1455367-1811331
2220-2590165-2859585-2292335-1463797-990526-1142704-950905-298900-323295
2211-538340-376202-571032-1197356-1808904-1734359-932141-593591-746078-698945
2201-553267-642083-958533-820348-253150-663289-2028372-2556108-2178386-1708475
2190-889208-26368-108168-1102419-1978516-2219807-2065357-2062730-2172594
2181-1707666-444711+934962+636178-968387-1896513-3215878-4575107-3699053
2172-2070477-1624275-1726810-1280944-688613-1674702-3003797-1440463+1500632
2163+1809130-218682-1847858-3681991-6289803-6645887-4779831-3224551-2807851
2154-2834425-2688285-3125515-4056833-4440955-4251343-3627442-2770981-2457561
2145-2815319-3326931-3779788-3524647-2111164-1145200-1530893-2044878-2227215
2135-2603424-3191945-2945552-1830875-1043168-577516-277140-390729-357689+174296
2125+505725+695983+1611277+2643924+2705911+2164795+1964782+2063643+1892598
2116+1874079+2207657+2026730+1278762+842561+952401+1245253+1282997+542438
2107-124257+391201+1091661+1331892+1594937+1500733+902523+328553-310929
2098-1082782-1606679-1991115-2496471-2468669-1697757-868146-111075+275991
2088-183131-826425-563062+491142+1433658+1712993+1757177+2219060+2171650
2079+1235326+807792+1111104+1061788+432677-147645-333633-280587-107357+353483
2069+933573+1040722+751834+330819-602641-1254163-650120+68224-103842-593929
2059-622835-392486-578664-911957-558198+39622+358557+1402343+2476303+1643383
2049-88429-927213-1041954-1298686-2035446-2891067-3688574-3486480-1596633
2040-80790-517264-1717710-2642390-3295069-3114420-2116553-1394534-1165375
2030-969940-747023-291197-161231-1339698-2334421-1508844+163204+494288-978107
2020-2034435-1938426-2220547-3295069-3938807-3965999-3646857-2593261-1633309
2011-1333021-1883036-2995592-2939229-2027698-1995831-2402289-3254870-5198033
2002-6582467-6400389-5692642-4559413-2877681-2164377-3215811-4642910-5136395
1993-4902978-4474227-3883881-3611588-3800877-3653642-3253055-3504623-3938203
1983-3571680-2742722-2034907-1666747-2074923-3617970-5560427-6948520-7015972
1974-5138807-2825275-1822181-2150367-2896718-3116639-3031774-2951403-3088935
1965-3719876-4579668-5448204-5685212-5382306-5178873-4854714-4174634-3240417
1956-2644544-2972187-3503481-2922413-1677803-1191891-1404044-1306174-799216
1947-295995+264999+415863-380391-1298551-1584093-1609174-1282159-655793-136492
1937-31777-666868-1364520-1454086-1206600-947531-768023-283425+390795+390660
1926-141629-509293-519088-104113+482649+760973+641931+173721-254704+15788
1916+418874+445398+523963+791170+846082+457274+441609+1120791+1487616+1494124
1906+1325691+1028597+1217337+1823374+2263657+2266983+2074331+2226391+2541193
1897+2299499+1814523+2009224+2482381+2502754+2467985+2657272+2780237+2894836
1888+2977071+2839114+2665152+2727413+3158472+3569208+3612652+3664470+3771455
1878+3698564+3795890+4121542+4234164+4223572+4336147+4422918+4298676+3919306
1869+3490425+3392947+3641980+3893505+4111088+4243360+4122495+4200685+4815376
1860+5370154+5120157+4592648+4647316+4855711+4805216+4678027+4418898+4231984
1851+4504216+4836719+4828059+4689310+4794101+5128889+5236219+5048423+5182347
1842+5518628+5731679+5917174+6099210+6184952+6421025+7019028+7560071+7621364
1833+7353592+7171221+7183752+7424076+8075328+8774945+9242822+9469652+9459993
1823+9574540+10025907+10534456+11046150+11653124+12023893+12031281+12138924
1815+12495875+12835622+13206956+13610666+13998275+14391487+14616501+14502700
1807+14325263+14398249+14551881+14785250+15049126+15060131+15011705+15283431
1799+15601675+15859846+16159979+16496117+16942927+17300196+17489583+17815870
1791+18250386+18526602+19028849+19777543+20383112+20771415+21083351+21570941
1783+22193615+22692157+22987125+23425165+24045963+24756568+25441935+26043782
1774+26542105+27006725+27881105+29226368+30365509+31193116+32283144+33885752
1766+35617330+37332871+39307111+41507384+44110651+47492479+51183592+55334332
1758+60316491+66967787+75162357+83863798+93825099+104837427+117894208+136082173
1750+154508050+172719164+194895454+218156419+241082745+263827391+289042668
1743+317726381+343237336+366433070+396494411+427893292+451946366+472890435
1736+490848643+510317121+533342111+546231786+551212087+553262027+552902129
1729+550847091+550531173+557224207+576987857+612442094+663687915+719215726
1721+763008786+787314298+793929452+793388847+804769654+839556911+910236999
1714+1019751915+1073741823+1011494552+879241606+737168096+620660148+535876105
1707+464920265+398249607+343610467+300032637+268123898+247431663+227208421
1700+194616044+175652598+168005897+160680552+150402672+140401351+134269726
1693+128077316+121087641+114280687+108194481+103441817+100124520+98391237
1686+98010011+99806501+102477008+100968588+96239587+88697203+79817832+72759472
1678+68006048+64725011+61520865+58194197+56308331+54919104+53310255+51721731
1669+50168226+48765387+47916648+47348332+46757972+46040945+45152270+44346602
1661+43861648+43443934+42957779+42606103+42411131+42227986+42004092+41551544
1653+40654797+40296342+40282367+40068453+39674875+39267183+38923399+38239314
1645+37608065+37400970+37282396+37062899+36715758+36347026+36032886+35739733
1637+35411609+34978276+34521131+34331683+34200176+33963812+33718686+33520143
1629+33341391+33143804+32951625+32763345+32473845+32006371+31666245+31634323
1620+31652876+31631034+31725874+31862745+31648658+31367229+31178723+30932653
1612+30667850+30372427+30018808+29610588+29203945+28790337+28362886+27958838
1604+27528004+27144199+26936634+26724931+26376197+25997170+25668866+25354223
1596+25013501+24683261+24355683+24096755+23910226+23643959+23405260+23444402
1588+23543096+23340333+22956779+22742264+22770063+22835980+22812611+22684767
1580+22582810+22724563+23004727+22927881+22375361+22219210+22318430+22369348
1571+22411231+22489909+22387071+22079269+21920634+21914027+21867999+21776901
1563+21894772+22147107+22373955+22457690+22077194+21876326+22380564+22900987
1555+23198884+23116480+23034618+23225861+23457720+23550319+23426362+23326314
1547+23368514+23272879+22816165+22538063+22668476+22937244+23113733+22632942
1539+21895686+21938975+22131924+22160219+21987434+21540778+21173459+21257439
1531+21389596+21367022+21187356+20914365+20776604+20661701+20421834+20302623
1523+20392468+20584188+20630324+20665839+20832224+20753320+20324628+20226176
1514+20438728+20642382+20743432+20731159+20611216+20479208+20539880+20757107
1506+20820475+21041844+21419013+21817899+22219526+22618940+22926896+23001842
1498+23054793+23298732+23680897+24156334+24677117+25163676+25619914+26172207
1490+27041826+28069618+29170595+30726090+32699559+34924631+37573604+40861119
1482+44889270+49891891+55777909+62470495+69989566+79963973+92470307+102988316
1474+111983641+119503393+122363589+122010892+120499767+118306453+115867736
1466+113631299+111180196+108252171+105843501+103863987+101979878+100461270
1459+99265711+98457265+97907601+97144614+96614820+96301325+96294553+97567495
1451+101665391+109873451+122637687+136394578+138467695+125815512+109104539
1444+96191842+88646256+84639103+82581641+81582816+81270110+81497765+82416920
1436+83892959+85592927+88242174+92806288+99699363+111083021+131662454+159735544
1428+187638268+207593330+211982039+200709780+179304854+158418699+143453892
1421+132909952+123864128+116802664+113519539+111914576+111000870+110519959
1413+110263970+110005343+109578794+108894330+107935164+106740608+105496000
1406+104373086+103517897+103372695+104346387+106451332+109435353+113359527
1399+119021140+125837463+132262491+138605338+145883774+153968904+161176165
1392+167972697+175142273+181976530+187345956+190017592+187995733+180873174
1385+170021120+156727002+143095542+131022670+121462882+114400630+109528928
1378+106442069+104498868+103144854+102339804+102460039+103637723+105594264
1371+108215304+111491365+115301191+119278190+123297982+127510381+131915447
1363+136944855+142436657+147382435+151615764+154984174+157837422+160808687
1356+163824517+166779494+169818091+172667010+174955961+176701465+178212007
1349+180130902+183060795+187617232+194827012+205754883+220976633+240486192
1342+263414367+289817088+320239727+351416119+378935332+401824100+420299289
1335+433601327+442250347+446965949+447767165+445089049+438997726+429253834
1328+415692041+398888525+379952946+360195367+340229369+320700604+302711843
1321+287189957+275393168+270146983+275783034+295829403+328774924+364394845
1313+387349233+389155493+374531093+352222357+327699319+303654535+281348153
1306+261269480+243501418+228077300+214746111+203126507+193045370+184385783
1299+176951257+170756716+165850326+161965053+158874059+156530726+154995237
1292+154227258+154156219+154741738+155810533+157277260+159210156+161591757
1285+164234933+167005135+169939504+173087701+176404814+179704295+182782533
1278+185752475+188849298+192072281+195220829+198115071+200829364+203625467
1271+206413748+208869025+211079513+213128655+214778688+215856103+216390948
1263+216475911+216231841+215538493+214151562+212413531+210851633+209627060
1256+208638655+207809183+207402950+207820392+209230285+211447194+214384170
1249+217913516+221178008+223163866+223454952+222364965+220538778+218348199
1242+216141468+214307264+212661065+210861539+209200705+207890662+206623802
1235+205309789+204148208+203139176+202376763+202137772+202243130+202412978
1228+202831607+203675714+204821415+206167070+207830238+210021908+212631660
1221+215412546+218361121+221377105+224534566+228110013+232096616+236633164
1214+242183941+249035867+257230335+266562428+276106755+283948876+287606970
1206+285578865+278857964+270156830+261921203+255299900+250338107+246915189
1199+244948110+244143936+244395693+245766549+248236889+251924796+257130621
1192+264306463+274197785+287827241+306432872+331543570+364189579+403215545
1185+445019109+484578364+516824815+538883449+550505525+552411226+546309316
1178+535984965+527089929+525414248+534073115+552433021+577366748+605163346
1171+632805742+659004384+684209113+708863274+732968424+757278761+782802950
1164+809402823+836556300+864195348+893005357+922657450+951275270+977854281
1156+1002131770+1023654469+1040396258+1049337376+1049577670+1041885043
1150+1026175425+1002974787+973458138+939148746+902696472+865564492+828014584
1143+790910159+755100306+720345976+686316267+652847090+619496698+586227534
1136+553371744+521034529+489598285+459756611+431618096+405101358+380599726
1129+358361513+337951199+319085522+301868086+286093626+271585366+258282277
1122+245939940+234456441+223909445+214034392+204435655+195335975+187154876
1115+179839174+173121017+167045710+161762005+157175064+153143226+149451135
1107+145927802+142506714+139072179+135780627+132819365+129913447+126989694
1100+124258636+121600019+119040911+116868829+115091069+113532373+112084347
1093+110831011+109817815+109033733+108588259+108206469+107711362+107476788
1086+107649605+108253932+109356432+110817817+112624476+114957620+117728436
1079+120761837+124231781+128208760+132567890+137406461+142643636+147660308
1072+151934999+155368435+158068366+160410181+162417542+163667181+164125644
1065+163966421+163247774+161875954+159916709+157876090+156197363+155161787
1057+155099125+156533577+159845766+165410331+174857161+190552496+214462906
1050+248429856+291916087+336950827+368798617+377258211+365372293+343739294
1043+321353280+302426322+287584980+276128648+267516330+261386534+256673325
1036+252353233+248130500+243837476+239565159+235432449+231210689+226739624
1029+222261553+217996728+213506981+208067751+201535634+194256438+186500468
1022+178638964+171180074+164409939+158509403+153606506+149579310+146327068
1015+144053773+143054208+143312251+144362714+145982544+148213591+150658262
1008+153026368+155387954+157630492+159770582+161909553+163712037+165038426
1000+166237312+167474847+168714852+170022657+171288564+172202280+172837501
993+173245212+173126972+172542523+171621996+170363153+169054589+167839161
986+166808665+166249319+166225753+166844647+168094363+169620142+171137086
979+172478888+173682814+174690017+175084282+174665809+173821196+173011106
972+172282943+171605747+171061211+170724918+171148801+173178678+177011622
965+182734758+191094482+203113294+219536771+240390837+265351924+293532376
958+321052620+341173463+348953467+343877539+329184406+309592512+288270856
950+267133080+247843792+230942430+216224913+203542878+192912204+184299088
943+177189353+170792348+164749247+159347546+154738673+150675543+147189808
936+144661097+143093275+141915581+140775776+139849751+139299153+139188356
929+139914816+142023351+145756552+151214922+158402878+167065812+176772612
922+186758472+195774706+202182141+203970186+199499393+189161265+175507833
915+161267268+147934405+136008653+126047332+118304079+112095673+106865007
908+102632068+99427387+96881473+94772899+93260373+92204120+91503698+91211639
899+91211795+91528607+92294445+93451394+94766507+95965626+96926397+97912301
891+98939966+99248391+98482641+97118538+95505489+93536465+90993431+88357515
883+86458586+85173617+83946115+82836892+82059563+81483321+80817411+79908473
875+78918920+78048124+77262407+76492673+75649344+74499853+73140469+72099264
867+71512032+71024335+70622276+70230411+69487006+68814723+68582066+68482503
859+68584548+69087069+69616484+69571307+68933469+68144221+67460389+66837243
850+66096937+65092196+64016634+63233705+62470003+61521166+60799168+60307169
842+59753575+59123934+58569507+58241773+58248589+58450513+58417756+58300888
834+58434434+58542857+58648793+59086677+59887310+60796609+61526104+62108398
826+62922186+64263779+65844514+67408454+69231503+71354560+73686620+76425243
818+79481204+82694822+86535998+91884827+99328295+109302206+122810065+140347748
810+160712729+181159570+197833014+207336007+208523762+202578838+191455061
803+177217901+162162857+147714913+133872825+120455495+108013725+97061928
795+87661315+79549777+72434573+66481812+61732135+57844779+54808614+52546961
787+50481497+48526449+46996126+45755177+44655800+43744089+43049500+42486000
779+42009151+41807796+41850555+41743495+41364278+41046877+40945635+40878741
771+40702120+40397869+40004930+39821075+40024048+40232031+40272786+40368245
763+40710692+41324317+42044647+42695980+43185848+43618964+44245501+45097178
755+45998965+46969281+48057852+49204001+50374052+51497724+52410866+52904081
746+52910055+52603819+52146591+51433792+50562801+50006078+49907250+49852469
738+49770235+50137644+50959649+51765803+52534351+53483344+54257943+54712850
730+55284091+56177077+57404482+58839606+60143300+60977117+61498826+61922368
722+61721091+60574670+58555267+55457408+51940868+49270297+47278514+45328190
714+43551535+41876252+40133110+38593648+37540482+36678647+35756510+34993703
706+34395508+33899138+33578390+33214737+32639254+32289084+32268079+32189822
698+31919783+31410817+31241229+32037133+33201545+33897596+33973323+33778604
689+33856433+34285640+34822536+35288844+35519212+35777719+36348972+37089100
681+38001695+39029715+39671538+39962670+40426984+41284209+42514747+43669420
673+44460887+45071374+45873777+47132839+48831041+50937124+52387543+53399728
665+54753026+57042575+60352925+63863949+67176109+70973835+75647836+80812775
657+86304899+91564920+95528890+97674225+97728003+95475044+91436726+86740681
649+82285077+78397522+74719715+71236986+68457020+66326106+64513458+63138321
640+62125260+61151320+60007136+58501630+56833796+55227749+53508233+51743507
632+50191602+48690971+47242026+46154175+45376276+44640767+44101700+44071225
624+44280588+44502717+44615347+44177672+43459225+43167497+43140977+43181873
616+43525765+43878160+44064871+44342437+44579434+44989607+45803701+46329458
608+46433025+46900499+48034894+49131964+49649416+49885581+50222739+50980321
600+51901597+52519148+53263462+54397459+55379913+56058618+56843770+57562844
591+58170261+59106040+59842041+60206448+61027261+62492991+63989463+64962231
583+66230736+68452252+70538583+71845074+72823812+74002605+75829541+78164399
575+80202595+81907179+83559946+85101303+86878099+88444122+88540061+87837401
567+88158767+88797335+88049858+86204416+84424262+83137513+81748549+79870058
559+78040325+76670233+75376064+73733509+71850985+70322745+69518648+68883272
551+68062726+67184827+66446044+66335680+66642315+66760648+67148675+67877699
543+68157527+68825334+71027093+73179739+73277556+72136808+71545397+71805093
534+71988102+71244692+70130405+69549833+69451126+69752832+70748641+71973132
526+72483511+72537713+72889310+73479549+73885411+74037235+74177310+74113699
518+73420521+72152011+71166579+70997781+70798124+69302396+67155714+66418337
510+67035815+67179154+66170443+64491147+62904506+62026480+61828258+61852881
502+61533300+60745020+60408017+60775801+60813393+60376993+59999017+59935479
494+60193595+59736070+58382086+57518582+57532015+58040788+58392614+58265937
485+58054230+57974618+58226861+58056516+57178067+56630208+56458734+56513335
477+56393980+55763323+55676871+56333269+56712656+56332598+55762987+55294711
469+55035540+54686944+54096185+54228850+54720780+54891062+55107956+54904470
461+54326507+54685489+55652672+56180477+56411159+56548631+56794370+57898538
453+59536807+59973465+59359237+58750322+57998924+57497220+57593976+58014988
445+59275763+61323952+61967428+60585125+59632148+59684651+59635042+59584835
436+59460066+59008759+58190938+57102878+57162402+58459654+59591028+60439489
428+61759160+63045184+61536691+57336293+55985520+59611758+64100167+65518316
420+64574671+66367035+71771330+74047481+74416009+74458875+75141593+77734722
412+80665242+81798844+82755022+86326509+91161694+93749953+95776113+100045755
404+104025264+106614535+108853813+109286502+106923291
##END=
